r 	 U_x 	 U_r 	 Time: 2.4485 	 Mesh (Number of cells): 9293	Angle: 180.0000
0.025000000	-0.000066926	0.000066914
0.035000000	0.000958106	-0.000958174
0.045000000	0.001394105	-0.001394214
0.055000000	0.002036431	-0.002036572
0.065000000	0.002451318	-0.002451491
0.075000000	0.003247285	-0.003247488
0.085000000	0.003765961	-0.003766195
0.095000000	0.004330095	-0.004330358
0.105000000	0.004936373	-0.004936666
0.115000000	0.005549622	-0.005549944
0.125000000	0.006113274	-0.006113625
0.135000000	0.006733250	-0.006733629
0.145000000	0.007334912	-0.007335320
0.155000000	0.007978973	-0.007979409
0.165000000	0.008596213	-0.008596677
0.175000000	0.009133802	-0.009134295
0.185000000	0.009808511	-0.009809031
0.195000000	0.010432366	-0.010432913
0.205000000	0.011205546	-0.011206121
0.215000000	0.011820861	-0.011821463
0.225000000	0.012505062	-0.012505691
0.235000000	0.013240396	-0.013241051
0.245000000	0.013994973	-0.013995654
0.255000000	0.014723348	-0.014724055
0.265000000	0.015512878	-0.015513612
0.275000000	0.016309914	-0.016310673
0.285000000	0.017115889	-0.017116673
0.295000000	0.017981466	-0.017982275
0.305000000	0.018808319	-0.018809152
0.315000000	0.019853235	-0.019854092
0.325000000	0.020603748	-0.020604629
0.335000000	0.021763728	-0.021764632
0.345000000	0.022900589	-0.022901516
0.355000000	0.023743065	-0.023744014
0.365000000	0.024916650	-0.024917621
0.375000000	0.026032679	-0.026033671
0.385000000	0.027250395	-0.027251407
0.395000000	0.028510578	-0.028511610
0.405000000	0.029781659	-0.029782711
0.415000000	0.031161182	-0.031162251
0.425000000	0.032384218	-0.032385305
0.435000000	0.033891413	-0.033892517
0.445000000	0.035757649	-0.035758769
0.455000000	0.037136753	-0.037137888
0.465000000	0.039200989	-0.039202138
0.475000000	0.040878939	-0.040880100
0.485000000	0.042777506	-0.042778679
0.495000000	0.044906538	-0.044907720
0.505000000	0.047347345	-0.047348537
0.515000000	0.049209346	-0.049210545
0.525000000	0.051800128	-0.051801332
0.535000000	0.054607477	-0.054608685
0.545000000	0.057378006	-0.057379215
0.555000000	0.060323152	-0.060324360
0.565000000	0.064092504	-0.064093708
0.575000000	0.067393801	-0.067395000
0.585000000	0.070391377	-0.070392567
0.595000000	0.075042535	-0.075043710
0.605000000	0.079017604	-0.079018761
0.615000000	0.084029315	-0.084030450
0.625000000	0.089030237	-0.089031344
0.635000000	0.093906351	-0.093907425
0.645000000	0.099287902	-0.099288936
0.655000000	0.105252980	-0.105253963
0.665000000	0.111089997	-0.111090923
0.675000000	0.116368492	-0.116369343
0.685000000	0.120845178	-0.120845942
0.695000000	0.121717603	-0.121718271
0.705000000	0.119846391	-0.119846947
0.715000000	0.111083780	-0.111084215
0.725000000	0.094229606	-0.094229931
0.735000000	0.072724392	-0.072724616
0.745000000	0.049684395	-0.049684535
0.755000000	0.024608627	-0.024608693
0.765000000	0.001090496	-0.001090494
0.775000000	-0.025167007	0.025167071
0.785000000	-0.015495232	0.015495278
0.795000000	0.001171163	-0.001171170
0.805000000	0.026803216	-0.026803311
0.815000000	0.053922923	-0.053923112
0.825000000	0.086662886	-0.086663224
0.835000000	0.108907511	-0.108908016
0.845000000	0.130030334	-0.130031079
0.855000000	0.134845121	-0.134846111
0.865000000	0.133470309	-0.133471530
0.875000000	0.122761277	-0.122762707
0.885000000	0.109983148	-0.109984755
0.895000000	0.098219311	-0.098221087
0.905000000	0.083522977	-0.083524907
0.915000000	0.069992688	-0.069994754
0.925000000	0.056451278	-0.056453467
0.935000000	0.045541435	-0.045543730
0.945000000	0.034963161	-0.034965549
0.955000000	0.024384887	-0.024387368
0.965000000	0.017021893	-0.017024470
0.975000000	0.012571773	-0.012574378
0.985000000	0.008121652	-0.008124285
0.995000000	0.003671532	-0.003674192
